#E [keV]Modulation factor
0       0.0000
0.5     0.0200
1	0.0498
1.5	0.0826
2	0.1560
2.5	0.2712
3	0.3808
3.5	0.4330
4	0.4737
4.5	0.5021
5	0.5378
5.5	0.5555
6	0.5713
6.5	0.5938
7	0.6045
7.5	0.6334
8	0.6466
8.5	0.6529
9	0.6580
9.5	0.6723
10	0.6842

