# Photon    Coherent Incoher. Photoel. 
# Energy    Scatter. Scatter. Absorb.  
#
1.000E-03 5.918E-01 2.091E-02 6.035E+02 
1.100E-03 5.702E-01 2.422E-02 4.543E+02 
1.200E-03 5.504E-01 2.764E-02 3.504E+02 
1.300E-03 5.314E-01 3.110E-02 2.757E+02 
1.400E-03 5.130E-01 3.455E-02 2.207E+02 
1.500E-03 4.948E-01 3.792E-02 1.792E+02 
1.600E-03 4.767E-01 4.117E-02 1.473E+02 
1.700E-03 4.591E-01 4.429E-02 1.224E+02 
1.800E-03 4.421E-01 4.728E-02 1.027E+02 
1.900E-03 4.258E-01 5.012E-02 8.697E+01 
2.000E-03 4.103E-01 5.284E-02 7.424E+01 
2.100E-03 3.956E-01 5.542E-02 6.383E+01 
2.200E-03 3.818E-01 5.787E-02 5.525E+01 
2.300E-03 3.687E-01 6.019E-02 4.812E+01 
2.400E-03 3.564E-01 6.240E-02 4.213E+01 
2.500E-03 3.447E-01 6.450E-02 3.709E+01 
2.600E-03 3.338E-01 6.649E-02 3.280E+01 
2.700E-03 3.235E-01 6.838E-02 2.913E+01 
2.800E-03 3.139E-01 7.018E-02 2.598E+01 
2.900E-03 3.047E-01 7.188E-02 2.326E+01 
3.000E-03 2.962E-01 7.350E-02 2.090E+01 
3.100E-03 2.881E-01 7.504E-02 1.884E+01 
3.200E-03 2.804E-01 7.651E-02 1.704E+01 
3.300E-03 2.732E-01 7.791E-02 1.545E+01 
3.400E-03 2.664E-01 7.925E-02 1.405E+01 
3.500E-03 2.599E-01 8.053E-02 1.282E+01 
3.600E-03 2.538E-01 8.176E-02 1.172E+01 
3.700E-03 2.479E-01 8.295E-02 1.074E+01 
3.800E-03 2.424E-01 8.409E-02 9.858E+00 
3.900E-03 2.371E-01 8.520E-02 9.072E+00 
4.000E-03 2.321E-01 8.627E-02 8.366E+00 
4.100E-03 2.274E-01 8.731E-02 7.730E+00 
4.200E-03 2.228E-01 8.832E-02 7.155E+00 
4.300E-03 2.185E-01 8.931E-02 6.634E+00 
4.400E-03 2.143E-01 9.027E-02 6.162E+00 
4.500E-03 2.103E-01 9.121E-02 5.732E+00 
4.600E-03 2.065E-01 9.213E-02 5.340E+00 
4.700E-03 2.028E-01 9.303E-02 4.983E+00 
4.800E-03 1.993E-01 9.391E-02 4.656E+00 
4.900E-03 1.959E-01 9.477E-02 4.356E+00 
5.000E-03 1.926E-01 9.562E-02 4.081E+00 
5.100E-03 1.894E-01 9.646E-02 3.828E+00 
5.200E-03 1.863E-01 9.728E-02 3.595E+00 
5.300E-03 1.834E-01 9.809E-02 3.380E+00 
5.400E-03 1.805E-01 9.889E-02 3.181E+00 
5.500E-03 1.777E-01 9.968E-02 2.997E+00 
5.600E-03 1.750E-01 1.004E-01 2.827E+00 
5.700E-03 1.724E-01 1.012E-01 2.669E+00 
5.800E-03 1.698E-01 1.020E-01 2.523E+00 
5.900E-03 1.673E-01 1.027E-01 2.386E+00 
6.000E-03 1.649E-01 1.034E-01 2.259E+00 
6.100E-03 1.625E-01 1.042E-01 2.141E+00 
6.200E-03 1.601E-01 1.049E-01 2.030E+00 
6.300E-03 1.579E-01 1.056E-01 1.927E+00 
6.400E-03 1.556E-01 1.063E-01 1.831E+00 
6.500E-03 1.535E-01 1.070E-01 1.741E+00 
6.600E-03 1.513E-01 1.076E-01 1.656E+00 
6.700E-03 1.492E-01 1.083E-01 1.577E+00 
6.800E-03 1.472E-01 1.090E-01 1.502E+00 
6.900E-03 1.452E-01 1.096E-01 1.432E+00 
7.000E-03 1.432E-01 1.103E-01 1.366E+00 
7.100E-03 1.413E-01 1.109E-01 1.304E+00 
7.200E-03 1.394E-01 1.115E-01 1.246E+00 
7.300E-03 1.376E-01 1.121E-01 1.191E+00 
7.400E-03 1.357E-01 1.128E-01 1.139E+00 
7.500E-03 1.339E-01 1.134E-01 1.090E+00 
7.600E-03 1.322E-01 1.140E-01 1.044E+00 
7.700E-03 1.304E-01 1.145E-01 9.999E-01 
7.800E-03 1.287E-01 1.151E-01 9.585E-01 
7.900E-03 1.271E-01 1.157E-01 9.192E-01 
8.000E-03 1.254E-01 1.163E-01 8.821E-01 
8.100E-03 1.238E-01 1.168E-01 8.468E-01 
8.200E-03 1.222E-01 1.174E-01 8.133E-01 
8.300E-03 1.206E-01 1.179E-01 7.816E-01 
8.400E-03 1.191E-01 1.185E-01 7.514E-01 
8.500E-03 1.176E-01 1.190E-01 7.227E-01 
8.600E-03 1.161E-01 1.195E-01 6.954E-01 
8.700E-03 1.146E-01 1.200E-01 6.695E-01 
8.800E-03 1.132E-01 1.206E-01 6.447E-01 
8.900E-03 1.118E-01 1.211E-01 6.212E-01 
9.000E-03 1.104E-01 1.216E-01 5.987E-01 
9.100E-03 1.090E-01 1.220E-01 5.773E-01 
9.200E-03 1.076E-01 1.225E-01 5.569E-01 
9.300E-03 1.063E-01 1.230E-01 5.374E-01 
9.400E-03 1.050E-01 1.235E-01 5.188E-01 
9.500E-03 1.037E-01 1.239E-01 5.010E-01 
9.600E-03 1.024E-01 1.244E-01 4.840E-01 
9.700E-03 1.011E-01 1.248E-01 4.677E-01 
9.800E-03 9.991E-02 1.253E-01 4.521E-01 
9.900E-03 9.869E-02 1.257E-01 4.372E-01 
1.000E-02 9.749E-02 1.262E-01 4.229E-01 
1.010E-02 9.631E-02 1.266E-01 4.092E-01 
1.020E-02 9.515E-02 1.270E-01 3.961E-01 
1.030E-02 9.400E-02 1.274E-01 3.835E-01 
1.040E-02 9.287E-02 1.278E-01 3.715E-01 
1.050E-02 9.176E-02 1.282E-01 3.599E-01 
1.060E-02 9.067E-02 1.286E-01 3.488E-01 
1.070E-02 8.959E-02 1.290E-01 3.381E-01 
1.080E-02 8.853E-02 1.294E-01 3.279E-01 
1.090E-02 8.748E-02 1.298E-01 3.180E-01 
1.100E-02 8.645E-02 1.301E-01 3.085E-01 
1.110E-02 8.544E-02 1.305E-01 2.994E-01 
1.120E-02 8.444E-02 1.309E-01 2.907E-01 
1.130E-02 8.346E-02 1.312E-01 2.822E-01 
1.140E-02 8.249E-02 1.316E-01 2.741E-01 
1.150E-02 8.153E-02 1.319E-01 2.663E-01 
1.160E-02 8.059E-02 1.322E-01 2.587E-01 
1.170E-02 7.967E-02 1.326E-01 2.515E-01 
1.180E-02 7.876E-02 1.329E-01 2.445E-01 
1.190E-02 7.786E-02 1.332E-01 2.377E-01 
1.200E-02 7.698E-02 1.336E-01 2.312E-01
